Raman_Shift,Feature Importance
549.955,-0.188975587
550.894,-0.188975587
551.832,-0.188975587
552.771,-0.188975587
553.71,-0.188975587
554.648,-0.188975587
555.586,-0.188975587
556.523,-0.188975587
557.461,-0.188975587
558.398,-0.188975587
559.335,-0.188975587
560.272,-0.188975587
561.209,-0.188975587
562.145,-0.188975587
563.082,-0.188975587
564.018,-0.188975587
564.954,-0.188975587
565.889,-0.153626786
566.825,-0.188975587
567.76,-0.188975587
568.695,-0.188975587
569.63,-0.153626786
570.564,-0.224324388
571.498,-0.153626786
572.433,-0.259673189
573.366,-0.401068393
574.3,-0.224324388
575.234,-0.259673189
576.167,-0.401068393
577.1,-0.259673189
578.033,-0.401068393
578.965,-0.436417194
579.898,-0.436417194
580.83,-0.188975587
581.762,-0.188975587
582.694,-0.188975587
583.625,-0.118277985
584.557,-0.082929184
585.488,0.05846602
586.419,0.05846602
587.349,-0.471765995
588.28,-0.613161199
589.21,-0.29502199
590.14,-0.436417194
591.07,-0.330370791
592,-1.00199801
592.929,-0.365719592
593.859,-0.542463597
594.788,-0.047580383
595.716,-0.153626786
596.645,-0.188975587
597.573,-0.542463597
598.502,0.093814821
599.43,-0.047580383
600.357,-0.577812398
601.285,-0.330370791
602.212,-0.401068393
603.139,0.129163621
604.066,0.836139641
604.993,0.518000432
605.919,0.093814821
606.846,0.411954029
607.772,0.235210024
608.698,0.305907626
609.623,0.093814821
610.549,-0.012231582
611.474,0.305907626
612.399,-0.082929184
613.324,0.270558825
614.248,0.023117219
615.173,-0.047580383
616.097,-0.153626786
617.021,-0.082929184
617.945,-0.118277985
618.868,-0.153626786
619.791,-0.047580383
620.715,-0.012231582
621.637,-0.188975587
622.56,-0.188975587
623.483,-0.188975587
624.405,-0.188975587
625.327,-0.188975587
626.249,-0.188975587
627.171,-0.188975587
628.092,-0.188975587
629.013,-0.188975587
629.934,-0.188975587
630.855,-0.188975587
631.776,-0.188975587
632.696,-0.188975587
633.616,-0.188975587
634.536,-0.188975587
635.456,-0.188975587
636.376,-0.188975587
637.295,-0.188975587
638.214,-0.188975587
639.133,-0.188975587
640.052,-0.188975587
640.97,-0.188975587
641.889,-0.188975587
642.807,-0.224324388
643.725,-0.153626786
644.642,-0.188975587
645.56,-0.188975587
646.477,-0.118277985
647.394,-0.188975587
648.311,-0.153626786
649.228,-0.118277985
650.144,-0.188975587
651.061,-0.188975587
651.977,-0.188975587
652.892,-0.188975587
653.808,-0.188975587
654.723,-0.188975587
655.639,-0.188975587
656.554,-0.188975587
657.468,-0.188975587
658.383,-0.188975587
659.297,-0.188975587
660.212,-0.188975587
661.126,-0.188975587
662.039,-0.224324388
662.953,-0.188975587
663.866,-0.153626786
664.779,-0.153626786
665.692,-0.188975587
666.605,-0.188975587
667.518,-0.188975587
668.43,-0.29502199
669.342,-0.188975587
670.254,-0.365719592
671.166,-0.153626786
672.077,-0.29502199
672.988,-0.330370791
673.9,-0.188975587
674.81,-0.224324388
675.721,-0.188975587
676.632,-0.188975587
677.542,-0.188975587
678.452,-0.188975587
679.362,-0.188975587
680.271,-0.330370791
681.181,-0.188975587
682.09,-0.188975587
682.999,-0.082929184
683.908,-0.188975587
684.817,-0.153626786
685.725,-0.188975587
686.633,-0.259673189
687.541,-0.188975587
688.449,-0.188975587
689.357,-0.188975587
690.264,-0.188975587
691.171,-0.188975587
692.078,-0.188975587
692.985,-0.188975587
693.892,-0.153626786
694.798,-0.188975587
695.704,-0.188975587
696.61,-0.153626786
697.516,-0.153626786
698.422,-0.224324388
699.327,-0.012231582
700.232,-0.224324388
701.137,-0.188975587
702.042,-0.436417194
702.946,-0.224324388
703.851,-0.365719592
704.755,-0.153626786
705.659,-0.365719592
706.562,-0.118277985
707.466,-0.047580383
708.369,-0.188975587
709.272,-0.542463597
710.175,-0.118277985
711.078,-0.047580383
711.981,0.305907626
712.883,-0.224324388
713.785,0.023117219
714.687,-0.401068393
715.589,0.129163621
716.49,-0.012231582
717.391,0.305907626
718.293,0.44730283
719.193,0.164512422
720.094,0.05846602
720.995,0.235210024
721.895,-0.012231582
722.795,-0.118277985
723.695,-0.401068393
724.595,0.023117219
725.494,-0.082929184
726.393,-0.012231582
727.292,-0.118277985
728.191,-0.224324388
729.09,-0.436417194
729.988,-0.330370791
730.887,-0.436417194
731.785,0.305907626
732.683,-0.259673189
733.58,0.023117219
734.478,-0.754556403
735.375,-0.224324388
736.272,-0.330370791
737.169,-0.118277985
738.066,-0.542463597
738.962,-0.188975587
739.858,-0.188975587
740.755,-0.188975587
741.65,-0.259673189
742.546,0.023117219
743.442,-0.012231582
744.337,0.093814821
745.232,-0.082929184
746.127,-0.118277985
747.021,0.023117219
747.916,-0.259673189
748.81,-0.29502199
749.704,-0.118277985
750.598,0.518000432
751.492,-0.153626786
752.385,0.129163621
753.279,-0.118277985
754.172,0.05846602
755.064,-0.118277985
755.957,-0.224324388
756.85,-0.153626786
757.742,-0.259673189
758.634,-0.082929184
759.526,-0.118277985
760.418,-0.047580383
761.309,0.023117219
762.2,-0.047580383
763.091,-0.507114796
763.982,-0.153626786
764.873,-0.436417194
765.763,0.659395636
766.654,-0.259673189
767.544,-0.047580383
768.434,-0.224324388
769.323,-0.012231582
770.213,-0.719207602
771.102,-0.613161199
771.991,-0.931300408
772.88,-0.542463597
773.769,-0.966649209
774.657,-0.577812398
775.546,-0.966649209
776.434,-0.330370791
777.322,-0.789905204
778.209,-0.188975587
779.097,-0.860602806
779.984,-0.188975587
780.871,-0.789905204
781.758,-0.118277985
782.645,-0.259673189
783.531,0.129163621
784.418,-0.153626786
785.304,0.023117219
786.19,0.023117219
787.076,0.129163621
787.961,0.05846602
788.846,0.164512422
789.732,-0.118277985
790.617,-0.047580383
791.501,-0.082929184
792.386,-0.047580383
793.27,-0.047580383
794.154,-0.047580383
795.038,0.023117219
795.922,0.376605228
796.806,0.023117219
797.689,0.164512422
798.572,0.129163621
799.455,0.270558825
800.338,0.093814821
801.221,0.023117219
802.103,0.164512422
802.985,0.05846602
803.867,0.05846602
804.749,0.129163621
805.631,0.05846602
806.512,0.199861223
807.393,0.093814821
808.274,0.270558825
809.155,0.199861223
810.036,-0.012231582
810.916,0.05846602
811.797,0.093814821
812.677,0.164512422
813.556,-0.012231582
814.436,-0.012231582
815.316,0.093814821
816.195,-0.082929184
817.074,-0.153626786
817.953,-0.188975587
818.832,0.199861223
819.71,-0.082929184
820.588,0.023117219
821.466,-0.118277985
822.344,-0.118277985
823.222,-0.012231582
824.1,-0.153626786
824.977,-0.365719592
825.854,-0.012231582
826.731,-0.153626786
827.608,-0.082929184
828.484,-0.188975587
829.361,0.05846602
830.237,-0.153626786
831.113,-0.012231582
831.989,-0.188975587
832.864,-0.012231582
833.74,-0.188975587
834.615,-0.082929184
835.49,-0.153626786
836.365,-0.153626786
837.239,-0.118277985
838.114,-0.153626786
838.988,-0.188975587
839.862,-0.047580383
840.736,0.235210024
841.609,-0.188975587
842.483,-0.188975587
843.356,-0.188975587
844.229,-0.153626786
845.102,-0.188975587
845.975,-0.188975587
846.847,-0.224324388
847.72,-0.224324388
848.592,-0.188975587
849.464,-0.29502199
850.335,-0.259673189
851.207,-0.153626786
852.078,-0.188975587
852.949,-0.29502199
853.82,-0.188975587
854.691,-0.188975587
855.562,-0.188975587
856.432,-0.188975587
857.302,-0.188975587
858.172,-0.188975587
859.042,-0.188975587
859.912,-0.188975587
860.781,-0.29502199
861.65,-0.188975587
862.519,-0.188975587
863.388,-0.188975587
864.257,-0.224324388
865.125,-0.188975587
865.994,-0.224324388
866.862,-0.188975587
867.73,-0.224324388
868.597,-0.188975587
869.465,-0.118277985
870.332,-0.188975587
871.199,-0.082929184
872.066,-0.153626786
872.933,-0.082929184
873.8,-0.118277985
874.666,-0.047580383
875.532,-0.330370791
876.398,-0.082929184
877.264,-0.082929184
878.13,0.093814821
878.995,-0.330370791
879.86,0.129163621
880.725,-0.436417194
881.59,0.05846602
882.455,-0.401068393
883.319,0.199861223
884.184,-0.365719592
885.048,0.05846602
885.912,-0.895951607
886.775,0.164512422
887.639,-0.330370791
888.502,0.553349233
889.365,-0.153626786
890.228,0.305907626
891.091,-0.153626786
891.954,0.305907626
892.816,-0.188975587
893.678,0.235210024
894.54,-0.259673189
895.402,0.305907626
896.264,-0.507114796
897.125,0.05846602
897.986,-0.082929184
898.847,0.05846602
899.708,-0.188975587
900.569,0.482651631
901.429,-0.29502199
902.29,0.093814821
903.15,0.023117219
904.01,0.553349233
904.87,-0.259673189
905.729,0.376605228
906.588,-0.542463597
907.448,-0.047580383
908.307,0.765442039
909.165,0.518000432
910.024,0.164512422
910.882,0.05846602
911.741,-0.401068393
912.599,0.093814821
913.457,-0.047580383
914.314,0.093814821
915.172,-0.047580383
916.029,-0.047580383
916.886,-0.047580383
917.743,0.164512422
918.6,-0.012231582
919.456,0.093814821
920.313,-0.047580383
921.169,0.129163621
922.025,-0.082929184
922.881,-0.012231582
923.736,-0.29502199
924.592,-0.118277985
925.447,-0.118277985
926.302,-0.118277985
927.157,-0.188975587
928.012,-0.330370791
928.866,-0.153626786
929.721,-0.188975587
930.575,-0.188975587
931.429,-0.118277985
932.282,-0.188975587
933.136,-0.188975587
933.989,-0.188975587
934.843,-0.188975587
935.696,-0.188975587
936.548,-0.188975587
937.401,-0.153626786
938.253,-0.153626786
939.106,-0.047580383
939.958,-0.188975587
940.81,-0.188975587
941.661,-0.153626786
942.513,-0.188975587
943.364,-0.188975587
944.215,-0.188975587
945.066,-0.224324388
945.917,-0.188975587
946.768,-0.188975587
947.618,-0.188975587
948.468,-0.188975587
949.319,-0.188975587
950.168,-0.188975587
951.018,-0.188975587
951.868,-0.224324388
952.717,-0.188975587
953.566,-0.188975587
954.415,-0.082929184
955.264,-0.224324388
956.112,-0.153626786
956.961,-0.047580383
957.809,-0.188975587
958.657,-0.047580383
959.505,-0.012231582
960.352,-0.012231582
961.2,-0.188975587
962.047,-0.188975587
962.894,-0.153626786
963.741,-0.29502199
964.588,-0.29502199
965.434,-0.082929184
966.281,0.305907626
967.127,-0.29502199
967.973,-0.401068393
968.819,-0.188975587
969.664,-0.436417194
970.51,-0.29502199
971.355,-0.719207602
972.2,-0.789905204
973.045,-0.436417194
973.89,-0.118277985
974.734,-0.224324388
975.579,-0.542463597
976.423,-0.188975587
977.267,0.023117219
978.11,0.341256427
978.954,0.305907626
979.797,0.199861223
980.641,-0.118277985
981.484,0.129163621
982.327,0.624046835
983.169,-0.082929184
984.012,-0.012231582
984.854,-0.153626786
985.696,0.235210024
986.538,0.093814821
987.38,-0.153626786
988.222,0.129163621
989.063,-0.012231582
989.904,-0.188975587
990.745,-0.153626786
991.586,0.765442039
992.427,0.588698034
993.268,1.578464462
994.108,1.083581248
994.948,1.437069258
995.788,1.613813263
996.628,1.295674054
997.467,0.730093238
998.307,1.083581248
999.146,1.083581248
999.985,3.805438923
1000.82,2.60357969
1001.66,4.441717341
1002.5,1.967301272
1003.34,3.027765302
1004.18,-0.330370791
1005.02,2.426835685
1005.85,0.341256427
1006.69,0.376605228
1007.53,1.224976452
1008.37,0.730093238
1009.2,0.05846602
1010.04,0.05846602
1010.88,0.730093238
1011.71,0.199861223
1012.55,0.199861223
1013.39,0.023117219
1014.22,-0.118277985
1015.06,0.05846602
1015.89,-0.436417194
1016.73,-0.29502199
1017.56,-0.153626786
1018.4,-0.259673189
1019.23,-0.224324388
1020.07,-0.401068393
1020.9,-0.825254005
1021.74,-0.825254005
1022.57,-0.64851
1023.41,-0.754556403
1024.24,-0.047580383
1025.07,-0.188975587
1025.91,-0.224324388
1026.74,0.129163621
1027.57,0.836139641
1028.41,0.023117219
1029.24,0.093814821
1030.07,-0.330370791
1030.9,0.093814821
1031.74,-0.259673189
1032.57,-0.118277985
1033.4,-0.118277985
1034.23,0.235210024
1035.06,-0.012231582
1035.89,0.164512422
1036.72,-0.471765995
1037.56,-0.224324388
1038.39,-0.047580383
1039.22,-0.047580383
1040.05,0.093814821
1040.88,-0.082929184
1041.71,0.093814821
1042.54,0.164512422
1043.37,0.235210024
1044.2,0.093814821
1045.03,0.05846602
1045.86,-0.012231582
1046.69,-0.012231582
1047.51,-0.118277985
1048.34,-0.29502199
1049.17,-0.365719592
1050,-0.188975587
1050.83,-0.188975587
1051.66,-0.118277985
1052.48,-0.082929184
1053.31,-0.082929184
1054.14,-0.118277985
1054.96,-0.012231582
1055.79,-0.012231582
1056.62,-0.082929184
1057.45,-0.082929184
1058.27,-0.118277985
1059.1,-0.047580383
1059.93,-0.188975587
1060.75,-0.153626786
1061.58,-0.082929184
1062.4,-0.082929184
1063.23,-0.153626786
1064.05,-0.047580383
1064.88,-0.082929184
1065.7,-0.153626786
1066.53,-0.188975587
1067.35,-0.188975587
1068.18,-0.188975587
1069,-0.153626786
1069.82,-0.188975587
1070.65,-0.188975587
1071.47,-0.118277985
1072.3,-0.188975587
1073.12,-0.153626786
1073.94,-0.012231582
1074.77,-0.153626786
1075.59,-0.118277985
1076.41,-0.188975587
1077.23,-0.188975587
1078.06,-0.188975587
1078.88,-0.082929184
1079.7,-0.188975587
1080.52,-0.118277985
1081.34,-0.118277985
1082.17,-0.188975587
1082.99,-0.29502199
1083.81,-0.118277985
1084.63,0.023117219
1085.45,-0.153626786
1086.27,-0.153626786
1087.09,-0.118277985
1087.91,-0.082929184
1088.73,-0.118277985
1089.55,-0.118277985
1090.37,-0.153626786
1091.19,-0.188975587
1092.01,-0.188975587
1092.83,-0.118277985
1093.65,-0.012231582
1094.46,0.164512422
1095.28,-0.153626786
1096.1,-0.224324388
1096.92,-0.118277985
1097.74,-0.188975587
1098.56,-0.082929184
1099.37,-0.259673189
1100.19,-0.082929184
1101.01,0.05846602
1101.83,-0.082929184
1102.64,0.05846602
1103.46,0.341256427
1104.28,0.05846602
1105.09,-0.577812398
1105.91,-0.082929184
1106.73,0.235210024
1107.54,-0.082929184
1108.36,-0.577812398
1109.17,-0.29502199
1109.99,0.376605228
1110.8,-0.259673189
1111.62,-0.754556403
1112.43,-0.365719592
1113.25,0.129163621
1114.06,-0.507114796
1114.88,-1.249439617
1115.69,-0.895951607
1116.51,0.376605228
1117.32,-0.29502199
1118.13,0.518000432
1118.95,-0.754556403
1119.76,1.543115661
1120.57,0.093814821
1121.39,0.023117219
1122.2,-0.436417194
1123.01,1.790557268
1123.82,-0.64851
1124.64,0.482651631
1125.45,-0.577812398
1126.26,15.01100883
1127.07,0.694744437
1127.89,22.71704745
1128.7,0.80079084
1129.51,12.99612718
1130.32,2.25009168
1131.13,7.092877414
1131.94,4.477066142
1132.75,2.60357969
1133.56,2.886370098
1134.37,2.709626093
1135.18,3.345904511
1135.99,4.017531729
1136.8,2.780323695
1137.61,2.815672496
1138.42,2.391486884
1139.23,3.31055571
1140.04,2.60357969
1140.85,2.179394078
1141.66,1.684510865
1142.47,1.649162064
1143.28,1.083581248
1144.08,0.977534845
1144.89,-0.118277985
1145.7,1.331022855
1146.51,-0.082929184
1147.31,0.199861223
1148.12,-0.330370791
1148.93,1.083581248
1149.74,-0.29502199
1150.54,-1.143393214
1151.35,-0.259673189
1152.16,-0.507114796
1152.96,-0.012231582
1153.77,-1.284788418
1154.57,0.129163621
1155.38,0.05846602
1156.19,-0.507114796
1156.99,-1.00199801
1157.8,0.305907626
1158.6,0.80079084
1159.41,0.624046835
1160.21,-0.719207602
1161.02,0.023117219
1161.82,0.553349233
1162.63,0.730093238
1163.43,0.023117219
1164.23,0.023117219
1165.04,2.179394078
1165.84,1.790557268
1166.65,2.462184486
1167.45,1.543115661
1168.25,1.578464462
1169.05,1.578464462
1169.86,1.861254869
1170.66,1.50776686
1171.46,1.189627651
1172.27,0.977534845
1173.07,0.341256427
1173.87,0.588698034
1174.67,1.189627651
1175.47,1.331022855
1176.27,1.755208467
1177.07,1.224976452
1177.88,1.861254869
1178.68,0.164512422
1179.48,-0.542463597
1180.28,-0.330370791
1181.08,0.05846602
1181.88,-0.118277985
1182.68,0.023117219
1183.48,-0.259673189
1184.28,-0.577812398
1185.08,-0.259673189
1185.88,-0.259673189
1186.68,0.305907626
1187.48,-0.188975587
1188.28,-0.012231582
1189.07,-0.153626786
1189.87,-0.436417194
1190.67,-0.507114796
1191.47,-0.012231582
1192.27,-0.153626786
1193.06,-0.224324388
1193.86,-0.330370791
1194.66,-0.012231582
1195.46,-0.224324388
1196.26,-0.082929184
1197.05,-0.118277985
1197.85,0.129163621
1198.65,-0.224324388
1199.44,-0.012231582
1200.24,-0.082929184
1201.04,-0.047580383
1201.83,-0.224324388
1202.63,-0.082929184
1203.42,-0.224324388
1204.22,-0.153626786
1205.01,-0.012231582
1205.81,0.093814821
1206.6,0.093814821
1207.4,0.05846602
1208.19,-0.012231582
1208.99,-0.153626786
1209.78,0.341256427
1210.58,0.129163621
1211.37,-0.118277985
1212.17,-0.118277985
1212.96,0.199861223
1213.75,0.023117219
1214.55,-0.012231582
1215.34,0.05846602
1216.13,0.341256427
1216.93,0.023117219
1217.72,0.05846602
1218.51,0.305907626
1219.3,0.44730283
1220.1,0.341256427
1220.89,0.411954029
1221.68,0.270558825
1222.47,-0.047580383
1223.26,0.305907626
1224.06,0.305907626
1224.85,0.05846602
1225.64,0.023117219
1226.43,-0.012231582
1227.22,0.164512422
1228.01,-0.188975587
1228.8,0.199861223
1229.59,-0.047580383
1230.38,-0.047580383
1231.17,-0.29502199
1231.96,-0.012231582
1232.75,-0.082929184
1233.54,0.164512422
1234.33,0.694744437
1235.12,0.906837243
1235.91,0.44730283
1236.69,-0.188975587
1237.48,0.341256427
1238.27,1.331022855
1239.06,-0.082929184
1239.85,-0.188975587
1240.64,-0.29502199
1241.43,0.518000432
1242.21,-0.224324388
1243,0.164512422
1243.79,-0.118277985
1244.57,1.189627651
1245.36,0.023117219
1246.15,-0.224324388
1246.94,-0.118277985
1247.72,0.199861223
1248.51,-0.118277985
1249.29,-0.224324388
1250.08,-0.224324388
1250.87,0.411954029
1251.65,-0.082929184
1252.44,-0.365719592
1253.22,-0.64851
1254.01,0.624046835
1254.79,-0.153626786
1255.58,-0.613161199
1256.36,-0.153626786
1257.15,-0.082929184
1257.93,-0.153626786
1258.71,-0.542463597
1259.5,-0.118277985
1260.28,0.05846602
1261.07,-0.118277985
1261.85,-0.401068393
1262.63,0.05846602
1263.42,0.05846602
1264.2,0.129163621
1264.98,-0.224324388
1265.77,-0.082929184
1266.55,-0.224324388
1267.33,-0.082929184
1268.11,-0.047580383
1268.9,-0.188975587
1269.68,-0.401068393
1270.46,-0.188975587
1271.24,-0.224324388
1272.02,-0.188975587
1272.8,-0.471765995
1273.58,-0.082929184
1274.36,-0.082929184
1275.15,-0.330370791
1275.93,-0.047580383
1276.71,-0.082929184
1277.49,-0.082929184
1278.27,1.083581248
1279.05,0.411954029
1279.83,0.376605228
1280.61,-0.118277985
1281.39,0.235210024
1282.17,-0.330370791
1282.94,0.093814821
1283.72,0.305907626
1284.5,-0.082929184
1285.28,-0.259673189
1286.06,-0.047580383
1286.84,-0.330370791
1287.62,-0.365719592
1288.4,-0.188975587
1289.17,-0.613161199
1289.95,-0.082929184
1290.73,-0.188975587
1291.51,1.295674054
1292.28,-0.507114796
1293.06,-0.259673189
1293.84,0.44730283
1294.61,2.179394078
1295.39,0.270558825
1296.17,-1.461532423
1296.94,-1.037346811
1297.72,-0.789905204
1298.49,-1.602927627
1299.27,-2.133159641
1300.05,-2.027113238
1300.82,-2.345252447
1301.6,-1.602927627
1302.37,-2.274554845
1303.15,-0.754556403
1303.92,-0.825254005
1304.7,-0.542463597
1305.47,-1.143393214
1306.25,-0.047580383
1307.02,-0.082929184
1307.8,0.270558825
1308.57,-1.108044413
1309.34,1.861254869
1310.12,1.083581248
1310.89,0.588698034
1311.66,-0.471765995
1312.44,1.083581248
1313.21,0.482651631
1313.98,0.235210024
1314.75,-0.153626786
1315.53,1.931952471
1316.3,1.189627651
1317.07,0.341256427
1317.84,-0.153626786
1318.61,1.331022855
1319.39,0.694744437
1320.16,-0.330370791
1320.93,-0.860602806
1321.7,-0.224324388
1322.47,0.482651631
1323.24,-0.224324388
1324.01,-0.047580383
1324.78,0.235210024
1325.55,0.518000432
1326.32,-1.249439617
1327.09,-1.214090816
1327.86,-1.214090816
1328.63,-0.188975587
1329.4,-1.426183622
1330.17,-1.037346811
1330.94,-1.00199801
1331.71,0.44730283
1332.48,-0.860602806
1333.25,-1.108044413
1334.02,-1.00199801
1334.79,-0.931300408
1335.56,-0.895951607
1336.32,-1.673625228
1337.09,-0.577812398
1337.86,-0.825254005
1338.63,0.376605228
1339.39,-0.047580383
1340.16,2.780323695
1340.93,0.023117219
1341.7,0.05846602
1342.46,-0.64851
1343.23,0.235210024
1344,0.553349233
1344.76,-0.082929184
1345.53,-0.365719592
1346.3,0.376605228
1347.06,0.765442039
1347.83,-0.082929184
1348.59,-0.259673189
1349.36,0.376605228
1350.12,0.411954029
1350.89,0.023117219
1351.65,-0.507114796
1352.42,0.164512422
1353.18,0.518000432
1353.95,-0.436417194
1354.71,-0.224324388
1355.48,-0.29502199
1356.24,0.270558825
1357.01,-0.29502199
1357.77,-0.224324388
1358.53,0.235210024
1359.3,0.129163621
1360.06,-0.082929184
1360.82,-0.259673189
1361.59,0.305907626
1362.35,0.942186044
1363.11,-0.047580383
1363.87,-0.224324388
1364.64,0.588698034
1365.4,1.012883646
1366.16,0.05846602
1366.92,-0.471765995
1367.68,-0.188975587
1368.45,1.118930049
1369.21,0.05846602
1369.97,-0.153626786
1370.73,-0.401068393
1371.49,0.44730283
1372.25,-0.118277985
1373.01,-0.330370791
1373.77,-0.436417194
1374.53,0.235210024
1375.29,0.023117219
1376.05,-0.118277985
1376.81,-0.047580383
1377.57,-0.047580383
1378.33,-0.259673189
1379.09,-0.047580383
1379.85,-0.012231582
1380.61,-0.153626786
1381.37,-0.082929184
1382.13,-0.330370791
1382.89,-0.188975587
1383.65,-0.188975587
1384.4,-0.29502199
1385.16,0.235210024
1385.92,-0.153626786
1386.68,-0.047580383
1387.44,0.270558825
1388.19,0.235210024
1388.95,-0.153626786
1389.71,0.199861223
1390.46,-0.153626786
1391.22,0.023117219
1391.98,-0.153626786
1392.74,-0.259673189
1393.49,-0.471765995
1394.25,-0.330370791
1395.01,-0.188975587
1395.76,-0.012231582
1396.52,-0.507114796
1397.27,-0.188975587
1398.03,-0.330370791
1398.78,-0.29502199
1399.54,-0.507114796
1400.29,-0.29502199
1401.05,-0.259673189
1401.8,-0.188975587
1402.56,-0.259673189
1403.31,-0.224324388
1404.07,-0.118277985
1404.82,-0.224324388
1405.58,-0.330370791
1406.33,-0.224324388
1407.08,-0.224324388
1407.84,-0.224324388
1408.59,-0.330370791
1409.34,-0.224324388
1410.1,-0.118277985
1410.85,-0.29502199
1411.6,-0.188975587
1412.36,-0.118277985
1413.11,-0.259673189
1413.86,0.164512422
1414.61,-0.118277985
1415.36,0.235210024
1416.12,-0.224324388
1416.87,-0.29502199
1417.62,-0.188975587
1418.37,0.164512422
1419.12,-0.188975587
1419.87,-0.153626786
1420.63,-0.224324388
1421.38,-0.082929184
1422.13,-0.153626786
1422.88,-0.012231582
1423.63,-0.330370791
1424.38,-0.259673189
1425.13,-0.29502199
1425.88,0.093814821
1426.63,-0.188975587
1427.38,-0.330370791
1428.13,-0.259673189
1428.88,0.44730283
1429.63,-0.224324388
1430.38,0.05846602
1431.12,-0.224324388
1431.87,0.588698034
1432.62,0.023117219
1433.37,0.093814821
1434.12,-0.224324388
1434.87,0.624046835
1435.61,-0.577812398
1436.36,0.023117219
1437.11,-0.365719592
1437.86,0.730093238
1438.6,-0.330370791
1439.35,-0.365719592
1440.1,-0.118277985
1440.85,0.235210024
1441.59,-0.259673189
1442.34,-0.401068393
1443.09,-0.365719592
1443.83,0.518000432
1444.58,0.411954029
1445.32,0.05846602
1446.07,-0.259673189
1446.82,0.411954029
1447.56,-0.436417194
1448.31,-0.259673189
1449.05,0.129163621
1449.8,0.411954029
1450.54,-0.330370791
1451.29,-0.259673189
1452.03,-0.507114796
1452.78,0.270558825
1453.52,-0.224324388
1454.27,0.093814821
1455.01,-0.012231582
1455.75,0.482651631
1456.5,-0.259673189
1457.24,-0.118277985
1457.98,-0.188975587
1458.73,0.588698034
1459.47,0.164512422
1460.21,0.270558825
1460.96,1.083581248
1461.7,0.906837243
1462.44,1.825906069
1463.18,2.179394078
1463.93,2.532882088
1464.67,2.144045277
1465.41,0.624046835
1466.15,0.730093238
1466.89,0.659395636
1467.64,0.836139641
1468.38,0.482651631
1469.12,0.199861223
1469.86,0.730093238
1470.6,0.765442039
1471.34,0.129163621
1472.08,0.199861223
1472.82,-0.012231582
1473.56,0.871488442
1474.3,0.05846602
1475.04,0.023117219
1475.78,-0.012231582
1476.52,0.411954029
1477.26,0.305907626
1478,0.05846602
1478.74,0.05846602
1479.48,1.012883646
1480.22,-0.224324388
1480.96,0.129163621
1481.7,0.270558825
1482.44,0.482651631
1483.17,-0.542463597
1483.91,-0.754556403
1484.65,-0.188975587
1485.39,0.341256427
1486.13,-0.153626786
1486.86,-0.188975587
1487.6,-0.436417194
1488.34,0.659395636
1489.08,-0.188975587
1489.81,-0.471765995
1490.55,-0.188975587
1491.29,0.023117219
1492.02,-0.118277985
1492.76,-0.401068393
1493.5,-0.365719592
1494.23,-0.188975587
1494.97,-0.29502199
1495.7,-0.259673189
1496.44,-0.29502199
1497.18,-0.012231582
1497.91,-0.29502199
1498.65,-0.188975587
1499.38,-0.188975587
1500.12,-0.118277985
1500.85,-0.188975587
1501.59,-0.153626786
1502.32,-0.188975587
1503.06,-0.259673189
1503.79,-0.330370791
1504.53,-0.330370791
1505.26,-0.259673189
1505.99,-0.365719592
1506.73,-0.365719592
1507.46,-0.365719592
1508.19,-0.188975587
1508.93,-0.259673189
1509.66,-0.188975587
1510.39,-0.188975587
1511.13,-0.188975587
1511.86,-0.153626786
1512.59,-0.153626786
1513.32,-0.153626786
1514.06,-0.188975587
1514.79,-0.188975587
1515.52,-0.188975587
1516.25,-0.188975587
1516.98,-0.188975587
1517.71,-0.224324388
1518.45,-0.188975587
1519.18,-0.188975587
1519.91,-0.188975587
1520.64,-0.188975587
1521.37,-0.188975587
1522.1,-0.188975587
1522.83,-0.188975587
1523.56,-0.153626786
1524.29,-0.188975587
1525.02,-0.224324388
1525.75,-0.224324388
1526.48,-0.118277985
1527.21,-0.188975587
1527.94,-0.188975587
1528.67,-0.188975587
1529.4,-0.188975587
1530.13,-0.188975587
1530.86,-0.224324388
1531.59,-0.188975587
1532.32,-0.224324388
1533.05,-0.224324388
1533.77,-0.188975587
1534.5,-0.330370791
1535.23,-0.365719592
1535.96,-0.436417194
1536.69,-0.224324388
1537.41,-0.082929184
1538.14,-0.047580383
1538.87,0.129163621
1539.59,-0.259673189
1540.32,-0.118277985
1541.05,-0.082929184
1541.78,-0.224324388
1542.5,-0.153626786
1543.23,0.023117219
1543.95,-0.012231582
1544.68,-0.082929184
1545.41,-0.012231582
1546.13,0.164512422
1546.86,0.305907626
1547.58,0.235210024
1548.31,0.05846602
1549.04,0.05846602
1549.76,0.023117219
1550.49,0.129163621
1551.21,0.305907626
1551.94,0.270558825
1552.66,-0.153626786
1553.39,0.05846602
1554.11,-0.118277985
1554.83,0.023117219
1555.56,-0.012231582
1556.28,0.093814821
1557.01,0.05846602
1557.73,0.093814821
1558.45,0.44730283
1559.18,0.376605228
1559.9,0.023117219
1560.62,0.341256427
1561.34,0.129163621
1562.07,0.129163621
1562.79,0.023117219
1563.51,-0.082929184
1564.23,0.235210024
1564.96,-0.29502199
1565.68,-0.012231582
1566.4,-0.507114796
1567.12,1.50776686
1567.84,-0.259673189
1568.57,0.482651631
1569.29,-0.64851
1570.01,0.588698034
1570.73,-0.719207602
1571.45,-0.966649209
1572.17,-1.00199801
1572.89,0.023117219
1573.61,-0.436417194
1574.33,-0.860602806
1575.05,-1.249439617
1575.77,-0.29502199
1576.49,-0.860602806
1577.21,-1.072695612
1577.93,-1.108044413
1578.65,-0.401068393
1579.37,-0.895951607
1580.09,-0.895951607
1580.81,-0.825254005
1581.53,-0.224324388
1582.25,-0.613161199
1582.97,-1.00199801
1583.69,-0.966649209
1584.4,1.331022855
1585.12,0.023117219
1585.84,0.305907626
1586.56,0.694744437
1587.28,1.931952471
1587.99,-0.365719592
1588.71,-0.401068393
1589.43,0.129163621
1590.15,0.270558825
1590.86,-0.259673189
1591.58,-0.224324388
1592.3,-0.259673189
1593.01,0.411954029
1593.73,-0.29502199
1594.45,-0.365719592
1595.16,-0.365719592
1595.88,0.05846602
1596.59,-0.259673189
1597.31,-0.29502199
1598.03,-0.153626786
1598.74,-0.224324388
1599.46,-0.436417194
1600.17,-0.365719592
1600.89,-0.330370791
1601.6,-0.188975587
1602.32,-0.401068393
1603.03,-0.365719592
1603.75,-0.401068393
1604.46,-0.224324388
1605.18,-0.365719592
1605.89,-0.613161199
1606.6,-0.29502199
1607.32,-0.153626786
1608.03,-0.542463597
1608.74,-0.507114796
1609.46,-0.401068393
1610.17,-0.401068393
1610.89,-0.330370791
1611.6,-0.613161199
1612.31,-0.401068393
1613.02,-0.507114796
1613.74,-0.64851
1614.45,-0.719207602
1615.16,-0.471765995
1615.87,0.129163621
1616.59,-0.719207602
1617.3,-0.683858801
1618.01,-0.577812398
1618.72,-0.330370791
1619.43,-0.542463597
1620.14,-0.719207602
1620.85,-0.542463597
1621.57,-0.436417194
1622.28,-0.577812398
1622.99,-0.754556403
1623.7,-0.64851
1624.41,-0.64851
1625.12,-0.789905204
1625.83,-0.895951607
1626.54,-0.64851
1627.25,-0.577812398
1627.96,-0.64851
1628.67,-0.754556403
1629.38,-0.542463597
1630.09,-0.471765995
1630.8,-0.860602806
1631.51,-0.931300408
1632.22,-0.613161199
1632.93,-0.401068393
1633.63,-0.789905204
1634.34,-0.719207602
1635.05,-0.64851
1635.76,-0.047580383
1636.47,-0.719207602
1637.18,-0.719207602
1637.88,-0.577812398
1638.59,-0.471765995
1639.3,-0.64851
1640.01,-0.789905204
1640.71,-0.64851
1641.42,-0.224324388
1642.13,-0.542463597
1642.84,-0.825254005
1643.54,-0.64851
1644.25,0.164512422
1644.96,-0.507114796
1645.66,-0.507114796
1646.37,-0.613161199
1647.07,0.553349233
1647.78,-0.365719592
1648.49,-0.613161199
1649.19,-0.507114796
1649.9,0.305907626
1650.6,-0.365719592
1651.31,-0.613161199
1652.01,-0.613161199
1652.72,2.073347675
1653.42,-0.330370791
1654.13,-0.047580383
1654.83,0.518000432
1655.54,1.613813263
1656.24,-0.224324388
1656.95,0.05846602
1657.65,0.553349233
1658.35,2.002650073
1659.06,0.05846602
1659.76,0.659395636
1660.47,0.836139641
1661.17,2.002650073
1661.87,-0.188975587
1662.58,0.44730283
1663.28,0.659395636
1663.98,1.401720457
1664.69,-0.118277985
1665.39,0.093814821
1666.09,0.376605228
1666.79,1.224976452
1667.49,0.553349233
1668.2,0.44730283
1668.9,0.624046835
1669.6,0.871488442
1670.3,0.093814821
1671,-0.082929184
1671.7,0.164512422
1672.41,0.341256427
1673.11,-0.29502199
1673.81,-0.401068393
1674.51,-0.153626786
1675.21,0.518000432
1675.91,-0.118277985
1676.61,-0.507114796
1677.31,-0.613161199
1678.01,0.164512422
1678.71,-0.118277985
1679.41,-0.895951607
1680.11,-0.577812398
1680.81,-0.012231582
1681.51,-0.613161199
1682.21,-0.825254005
1682.91,-0.507114796
1683.61,0.341256427
1684.31,-0.224324388
1685.01,-0.471765995
1685.7,-0.401068393
1686.4,0.44730283
1687.1,-0.330370791
1687.8,-0.542463597
1688.5,-0.577812398
1689.2,0.199861223
1689.89,-0.436417194
1690.59,-0.436417194
1691.29,-0.542463597
1691.99,0.164512422
1692.68,-0.188975587
1693.38,-0.224324388
1694.08,-0.047580383
1694.78,-0.012231582
1695.47,-0.188975587
1696.17,-0.436417194
1696.87,0.199861223
1697.56,0.164512422
1698.26,0.093814821
1698.95,-0.012231582
1699.65,0.164512422
1700.35,0.270558825
1701.04,-0.012231582
1701.74,-0.118277985
1702.43,-0.047580383
1703.13,-0.118277985
1703.82,-0.188975587
1704.52,-0.259673189
1705.21,-0.224324388
1705.91,-0.188975587
1706.6,-0.29502199
1707.3,-0.259673189
1707.99,-0.29502199
1708.69,-0.188975587
1709.38,-0.188975587
1710.07,-0.224324388
1710.77,-0.188975587
1711.46,-0.436417194
1712.16,-0.188975587
1712.85,-0.118277985
1713.54,-0.224324388
1714.24,-0.224324388
1714.93,-0.365719592
1715.62,-0.188975587
1716.31,-0.153626786
1717.01,-0.188975587
1717.7,-0.259673189
1718.39,-0.188975587
1719.08,-0.188975587
1719.78,-0.224324388
1720.47,-0.330370791
1721.16,-0.224324388
1721.85,-0.401068393
1722.55,-0.224324388
1723.24,-0.153626786
1723.93,-0.224324388
1724.62,-0.153626786
1725.31,-0.188975587
1726,-0.188975587
1726.69,-0.188975587
1727.38,-0.188975587
1728.07,-0.153626786
1728.76,-0.188975587
1729.45,-0.188975587
1730.14,-0.153626786
1730.83,-0.188975587
1731.52,-0.188975587
1732.21,-0.188975587
1732.9,-0.188975587
1733.59,-0.188975587
1734.28,-0.224324388
1734.97,-0.259673189
1735.66,-0.188975587
1736.35,-0.188975587
1737.04,-0.188975587
1737.73,-0.29502199
1738.42,-0.224324388
1739.1,-0.188975587
1739.79,-0.188975587
1740.48,-0.188975587
1741.17,-0.188975587
1741.86,-0.188975587
1742.55,-0.188975587
1743.23,-0.188975587
1743.92,-0.188975587
1744.61,-0.188975587
1745.3,-0.188975587
1745.98,-0.188975587
1746.67,-0.188975587
1747.36,-0.188975587
1748.04,-0.188975587
1748.73,-0.188975587
1749.42,-0.188975587
1750.1,-0.188975587
